theta,y3.122,-0.10902
3.1202,-0.10938
3.1183,-0.10975
3.1165,-0.11016
3.1146,-0.11059
3.1128,-0.11105
3.1109,-0.11154
3.1091,-0.11207
3.1072,-0.11264
3.1054,-0.11326
3.1035,-0.11393
3.1017,-0.11466
3.0998,-0.11546
3.098,-0.11634
3.0961,-0.11731
3.0943,-0.11839
3.0924,-0.1196
3.0906,-0.12096
3.0887,-0.12249
3.0869,-0.1242
3.085,-0.12611
3.0832,-0.12819
3.0813,-0.13038
3.0795,-0.1326
3.0776,-0.13476
3.0758,-0.13678
3.0739,-0.13864
3.0721,-0.14033
3.0702,-0.14187
3.0684,-0.14328
3.0665,-0.14456
3.0647,-0.14575
3.0628,-0.14684
3.061,-0.14786
3.0591,-0.14881
3.0573,-0.14971
3.0554,-0.15055
3.0536,-0.15134
3.0517,-0.1521
3.0499,-0.15281
3.048,-0.1535
3.0462,-0.15415
3.0443,-0.15478
3.0425,-0.15538
3.0406,-0.15596
3.0388,-0.15651
3.0369,-0.15705
3.0351,-0.15757
3.0332,-0.15808
3.0314,-0.15857
3.0295,-0.15904
3.0277,-0.1595
3.0258,-0.15995
3.024,-0.16039
3.0221,-0.16081
3.0203,-0.16123
3.0184,-0.16164
3.0166,-0.16204
3.0147,-0.16242
3.0129,-0.16281
3.011,-0.16318
3.0092,-0.16354
3.0073,-0.1639
3.0055,-0.16425
3.0036,-0.1646
3.0018,-0.16494
2.9999,-0.16528
2.9981,-0.1656
2.9962,-0.16593
2.9944,-0.16625
2.9925,-0.16656
2.9907,-0.16687
2.9888,-0.16717
2.987,-0.16747
2.9851,-0.16777
2.9833,-0.16806
2.9814,-0.16835
2.9796,-0.16864
2.9777,-0.16892
2.9759,-0.1692
2.974,-0.16948
2.9722,-0.16975
2.9703,-0.17002
2.9685,-0.17028
2.9666,-0.17055
2.9648,-0.17081
2.9629,-0.17107
2.9611,-0.17132
2.9592,-0.17158
2.9574,-0.17183
2.9555,-0.17208
2.9537,-0.17233
2.9518,-0.17257
2.95,-0.17281
2.9481,-0.17305
2.9463,-0.17329
2.9444,-0.17353
2.9426,-0.17377
2.9407,-0.174
2.9389,-0.17423
2.937,-0.17446
2.9352,-0.17469
2.9333,-0.17491
2.9315,-0.17514
2.9296,-0.17536
2.9278,-0.17559
2.9259,-0.17581
2.9241,-0.17603
2.9222,-0.17624
2.9204,-0.17646
2.9186,-0.17668
2.9167,-0.17689
2.9149,-0.1771
2.913,-0.17731
2.9112,-0.17752
2.9093,-0.17773
2.9075,-0.17794
2.9056,-0.17815
2.9038,-0.17836
2.9019,-0.17856
2.9001,-0.17877
2.8982,-0.17897
2.8964,-0.17917
2.8945,-0.17937
2.8927,-0.17957
2.8908,-0.17977
2.889,-0.17997
2.8871,-0.18017
2.8853,-0.18036
2.8834,-0.18056
2.8816,-0.18076
2.8797,-0.18095
2.8779,-0.18114
2.876,-0.18134
2.8742,-0.18153
2.8723,-0.18172
2.8705,-0.18191
2.8686,-0.1821
2.8668,-0.18229
2.8649,-0.18248
2.8631,-0.18267
2.8612,-0.18285
2.8594,-0.18304
2.8575,-0.18322
2.8557,-0.18341
2.8538,-0.18359
2.852,-0.18378
2.8501,-0.18396
2.8483,-0.18415
2.8464,-0.18433
2.8446,-0.18451
2.8427,-0.18469
2.8409,-0.18487
2.839,-0.18505
2.8372,-0.18523
2.8353,-0.18541
2.8335,-0.18559
2.8316,-0.18577
2.8298,-0.18595
2.8279,-0.18612
2.8261,-0.1863
2.8242,-0.18648
2.8224,-0.18665
2.8205,-0.18683
2.8187,-0.187
2.8168,-0.18718
2.815,-0.18735
2.8131,-0.18752
2.8113,-0.1877
2.8094,-0.18787
2.8076,-0.18804
2.8057,-0.18822
2.8039,-0.18839
2.802,-0.18856
2.8002,-0.18873
2.7983,-0.1889
2.7965,-0.18907
2.7946,-0.18924
2.7928,-0.18941
2.7909,-0.18958
2.7891,-0.18975
2.7872,-0.18992
2.7854,-0.19009
2.7835,-0.19025
2.7817,-0.19042
2.7798,-0.19059
2.778,-0.19075
2.7761,-0.19092
2.7743,-0.19109
2.7724,-0.19125
2.7706,-0.19142
2.7687,-0.19158
2.7669,-0.19175
2.765,-0.19191
2.7632,-0.19208
2.7613,-0.19224
2.7595,-0.19241
2.7576,-0.19257
2.7558,-0.19273
2.7539,-0.1929
2.7521,-0.19306
2.7502,-0.19322
2.7484,-0.19339
2.7465,-0.19355
2.7447,-0.19371
2.7428,-0.19387
2.741,-0.19403
2.7391,-0.19419
2.7373,-0.19435
2.7354,-0.19452
2.7336,-0.19468
2.7317,-0.19484
2.7299,-0.195
2.728,-0.19516
2.7262,-0.19532
2.7243,-0.19547
2.7225,-0.19563
2.7206,-0.19579
2.7188,-0.19595
2.717,-0.19611
2.7151,-0.19627
2.7133,-0.19643
2.7114,-0.19658
2.7096,-0.19674
2.7077,-0.1969
2.7059,-0.19706
2.704,-0.19721
2.7022,-0.19737
2.7003,-0.19753
2.6985,-0.19768
2.6966,-0.19784
2.6948,-0.198
2.6929,-0.19815
2.6911,-0.19831
2.6892,-0.19846
2.6874,-0.19862
2.6855,-0.19877
2.6837,-0.19893
2.6818,-0.19908
2.68,-0.19924
2.6781,-0.19939
2.6763,-0.19955
2.6744,-0.1997
2.6726,-0.19985
2.6707,-0.20001
2.6689,-0.20016
2.667,-0.20031
2.6652,-0.20047
2.6633,-0.20062
2.6615,-0.20077
2.6596,-0.20093
2.6578,-0.20108
2.6559,-0.20123
2.6541,-0.20138
2.6522,-0.20154
2.6504,-0.20169
2.6485,-0.20184
2.6467,-0.20199
2.6448,-0.20214
2.643,-0.2023
2.6411,-0.20245
2.6393,-0.2026
2.6374,-0.20275
2.6356,-0.2029
2.6337,-0.20305
2.6319,-0.2032
2.63,-0.20335
2.6282,-0.2035
2.6263,-0.20365
2.6245,-0.2038
2.6226,-0.20395
2.6208,-0.2041
2.6189,-0.20425
2.6171,-0.2044
2.6152,-0.20455
2.6134,-0.2047
2.6115,-0.20485
2.6097,-0.205
2.6078,-0.20515
2.606,-0.2053
2.6041,-0.20544
2.6023,-0.20559
2.6004,-0.20574
2.5986,-0.20589
2.5967,-0.20604
2.5949,-0.20619
2.593,-0.20633
2.5912,-0.20648
2.5893,-0.20663
2.5875,-0.20678
2.5856,-0.20692
2.5838,-0.20707
2.5819,-0.20722
2.5801,-0.20737
2.5782,-0.20751
2.5764,-0.20766
2.5745,-0.20781
2.5727,-0.20795
2.5708,-0.2081
2.569,-0.20824
2.5671,-0.20839
2.5653,-0.20854
2.5634,-0.20868
2.5616,-0.20883
2.5597,-0.20898
2.5579,-0.20912
2.556,-0.20927
2.5542,-0.20941
2.5523,-0.20956
2.5505,-0.2097
2.5486,-0.20985
2.5468,-0.20999
2.5449,-0.21014
2.5431,-0.21028
2.5412,-0.21043
2.5394,-0.21057
2.5375,-0.21072
2.5357,-0.21086
2.5338,-0.21101
2.532,-0.21115
2.5301,-0.21129
2.5283,-0.21144
2.5264,-0.21158
2.5246,-0.21173
2.5227,-0.21187
2.5209,-0.21201
2.5191,-0.21216
2.5172,-0.2123
2.5154,-0.21244
2.5135,-0.21259
2.5117,-0.21273
2.5098,-0.21287
2.508,-0.21302
2.5061,-0.21316
2.5043,-0.2133
2.5024,-0.21344
2.5006,-0.21359
2.4987,-0.21373
2.4969,-0.21387
2.495,-0.21401
2.4932,-0.21416
2.4913,-0.2143
2.4895,-0.21444
2.4876,-0.21458
2.4858,-0.21472
2.4839,-0.21486
2.4821,-0.21501
2.4802,-0.21515
2.4784,-0.21529
2.4765,-0.21543
2.4747,-0.21557
2.4728,-0.21571
2.471,-0.21585
2.4691,-0.216
2.4673,-0.21614
2.4654,-0.21628
2.4636,-0.21642
2.4617,-0.21656
2.4599,-0.2167
2.458,-0.21684
2.4562,-0.21698
2.4543,-0.21712
2.4525,-0.21726
2.4506,-0.2174
2.4488,-0.21754
2.4469,-0.21768
2.4451,-0.21782
2.4432,-0.21796
2.4414,-0.2181
2.4395,-0.21824
2.4377,-0.21838
2.4358,-0.21852
2.434,-0.21866
2.4321,-0.2188
2.4303,-0.21894
2.4284,-0.21908
2.4266,-0.21921
2.4247,-0.21935
2.4229,-0.21949
2.421,-0.21963
2.4192,-0.21977
2.4173,-0.21991
2.4155,-0.22005
2.4136,-0.22018
2.4118,-0.22032
2.4099,-0.22046
2.4081,-0.2206
2.4062,-0.22074
2.4044,-0.22088
2.4025,-0.22101
2.4007,-0.22115
2.3988,-0.22129
2.397,-0.22143
2.3951,-0.22156
2.3933,-0.2217
2.3914,-0.22184
2.3896,-0.22198
2.3877,-0.22211
2.3859,-0.22225
2.384,-0.22239
2.3822,-0.22253
2.3803,-0.22266
2.3785,-0.2228
2.3766,-0.22294
2.3748,-0.22307
2.3729,-0.22321
2.3711,-0.22335
2.3692,-0.22348
2.3674,-0.22362
2.3655,-0.22376
2.3637,-0.22389
2.3618,-0.22403
2.36,-0.22416
2.3581,-0.2243
2.3563,-0.22444
2.3544,-0.22457
2.3526,-0.22471
2.3507,-0.22484
2.3489,-0.22498
2.347,-0.22511
2.3452,-0.22525
2.3433,-0.22538
2.3415,-0.22552
2.3396,-0.22566
2.3378,-0.22579
2.3359,-0.22593
2.3341,-0.22606
2.3322,-0.2262
2.3304,-0.22633
2.3285,-0.22647
2.3267,-0.2266
2.3248,-0.22673
2.323,-0.22687
2.3211,-0.227
2.3193,-0.22714
2.3175,-0.22727
2.3156,-0.22741
2.3138,-0.22754
2.3119,-0.22767
2.3101,-0.22781
2.3082,-0.22794
2.3064,-0.22808
2.3045,-0.22821
2.3027,-0.22834
2.3008,-0.22848
2.299,-0.22861
2.2971,-0.22874
2.2953,-0.22888
2.2934,-0.22901
2.2916,-0.22914
2.2897,-0.22928
2.2879,-0.22941
2.286,-0.22954
2.2842,-0.22968
2.2823,-0.22981
2.2805,-0.22994
2.2786,-0.23007
2.2768,-0.23021
2.2749,-0.23034
2.2731,-0.23047
2.2712,-0.23061
2.2694,-0.23074
2.2675,-0.23087
2.2657,-0.231
2.2638,-0.23113
2.262,-0.23127
2.2601,-0.2314
2.2583,-0.23153
2.2564,-0.23166
2.2546,-0.23179
2.2527,-0.23193
2.2509,-0.23206
2.249,-0.23219
2.2472,-0.23232
2.2453,-0.23245
2.2435,-0.23258
2.2416,-0.23271
2.2398,-0.23284
2.2379,-0.23298
2.2361,-0.23311
2.2342,-0.23324
2.2324,-0.23337
2.2305,-0.2335
2.2287,-0.23363
2.2268,-0.23376
2.225,-0.23389
2.2231,-0.23402
2.2213,-0.23415
2.2194,-0.23428
2.2176,-0.23441
2.2157,-0.23454
2.2139,-0.23467
2.212,-0.2348
2.2102,-0.23493
2.2083,-0.23506
2.2065,-0.23519
2.2046,-0.23532
2.2028,-0.23545
2.2009,-0.23558
2.1991,-0.23571
2.1972,-0.23584
2.1954,-0.23597
2.1935,-0.2361
2.1917,-0.23623
2.1898,-0.23636
2.188,-0.23649
2.1861,-0.23662
2.1843,-0.23674
2.1824,-0.23687
2.1806,-0.237
2.1787,-0.23713
2.1769,-0.23726
2.175,-0.23739
2.1732,-0.23752
2.1713,-0.23765
2.1695,-0.23777
2.1676,-0.2379
2.1658,-0.23803
2.1639,-0.23816
2.1621,-0.23829
2.1602,-0.23841
2.1584,-0.23854
2.1565,-0.23867
2.1547,-0.2388
2.1528,-0.23893
2.151,-0.23905
2.1491,-0.23918
2.1473,-0.23931
2.1454,-0.23944
2.1436,-0.23956
2.1417,-0.23969
2.1399,-0.23982
2.138,-0.23994
2.1362,-0.24007
2.1343,-0.2402
2.1325,-0.24033
2.1306,-0.24045
2.1288,-0.24058
2.1269,-0.24071
2.1251,-0.24083
2.1232,-0.24096
2.1214,-0.24108
2.1195,-0.24121
2.1177,-0.24134
2.1159,-0.24146
2.114,-0.24159
2.1122,-0.24172
2.1103,-0.24184
2.1085,-0.24197
2.1066,-0.24209
2.1048,-0.24222
2.1029,-0.24235
2.1011,-0.24247
2.0992,-0.2426
2.0974,-0.24272
2.0955,-0.24285
2.0937,-0.24297
2.0918,-0.2431
2.09,-0.24322
2.0881,-0.24335
2.0863,-0.24347
2.0844,-0.2436
2.0826,-0.24372
2.0807,-0.24385
2.0789,-0.24397
2.077,-0.2441
2.0752,-0.24422
2.0733,-0.24435
2.0715,-0.24447
2.0696,-0.2446
2.0678,-0.24472
2.0659,-0.24484
2.0641,-0.24497
2.0622,-0.24509
2.0604,-0.24522
2.0585,-0.24534
2.0567,-0.24546
2.0548,-0.24559
2.053,-0.24571
2.0511,-0.24584
2.0493,-0.24596
2.0474,-0.24608
2.0456,-0.24621
2.0437,-0.24633
2.0419,-0.24645
2.04,-0.24658
2.0382,-0.2467
2.0363,-0.24682
2.0345,-0.24694
2.0326,-0.24707
2.0308,-0.24719
2.0289,-0.24731
2.0271,-0.24744
2.0252,-0.24756
2.0234,-0.24768
2.0215,-0.2478
2.0197,-0.24793
2.0178,-0.24805
2.016,-0.24817
2.0141,-0.24829
2.0123,-0.24842
2.0104,-0.24854
2.0086,-0.24866
2.0067,-0.24878
2.0049,-0.2489
2.003,-0.24902
2.0012,-0.24915
1.9993,-0.24927
1.9975,-0.24939
1.9956,-0.24951
1.9938,-0.24963
1.9919,-0.24975
1.9901,-0.24987
1.9882,-0.25
1.9864,-0.25012
1.9845,-0.25024
1.9827,-0.25036
1.9808,-0.25048
1.979,-0.2506
1.9771,-0.25072
1.9753,-0.25084
1.9734,-0.25096
1.9716,-0.25108
1.9697,-0.2512
1.9679,-0.25132
1.966,-0.25144
1.9642,-0.25156
1.9623,-0.25168
1.9605,-0.2518
1.9586,-0.25192
1.9568,-0.25204
1.9549,-0.25216
1.9531,-0.25228
1.9512,-0.2524
1.9494,-0.25252
1.9475,-0.25264
1.9457,-0.25276
1.9438,-0.25288
1.942,-0.253
1.9401,-0.25312
1.9383,-0.25324
1.9364,-0.25336
1.9346,-0.25348
1.9327,-0.2536
1.9309,-0.25371
1.929,-0.25383
1.9272,-0.25395
1.9253,-0.25407
1.9235,-0.25419
1.9216,-0.25431
1.9198,-0.25443
1.9179,-0.25454
1.9161,-0.25466
1.9143,-0.25478
1.9124,-0.2549
1.9106,-0.25502
1.9087,-0.25513
1.9069,-0.25525
1.905,-0.25537
1.9032,-0.25549
1.9013,-0.25561
1.8995,-0.25572
1.8976,-0.25584
1.8958,-0.25596
1.8939,-0.25608
1.8921,-0.25619
1.8902,-0.25631
1.8884,-0.25643
1.8865,-0.25654
1.8847,-0.25666
1.8828,-0.25678
1.881,-0.25689
1.8791,-0.25701
1.8773,-0.25713
1.8754,-0.25724
1.8736,-0.25736
1.8717,-0.25748
1.8699,-0.25759
1.868,-0.25771
1.8662,-0.25783
1.8643,-0.25794
1.8625,-0.25806
1.8606,-0.25817
1.8588,-0.25829
1.8569,-0.25841
1.8551,-0.25852
1.8532,-0.25864
1.8514,-0.25875
1.8495,-0.25887
1.8477,-0.25898
1.8458,-0.2591
1.844,-0.25922
1.8421,-0.25933
1.8403,-0.25945
1.8384,-0.25956
1.8366,-0.25968
1.8347,-0.25979
1.8329,-0.25991
1.831,-0.26002
1.8292,-0.26014
1.8273,-0.26025
1.8255,-0.26036
1.8236,-0.26048
1.8218,-0.26059
1.8199,-0.26071
1.8181,-0.26082
1.8162,-0.26094
1.8144,-0.26105
1.8125,-0.26116
1.8107,-0.26128
1.8088,-0.26139
1.807,-0.26151
1.8051,-0.26162
1.8033,-0.26173
1.8014,-0.26185
1.7996,-0.26196
1.7977,-0.26207
1.7959,-0.26219
1.794,-0.2623
1.7922,-0.26241
1.7903,-0.26253
1.7885,-0.26264
1.7866,-0.26275
1.7848,-0.26287
1.7829,-0.26298
1.7811,-0.26309
1.7792,-0.2632
1.7774,-0.26332
1.7755,-0.26343
1.7737,-0.26354
1.7718,-0.26365
1.77,-0.26377
1.7681,-0.26388
1.7663,-0.26399
1.7644,-0.2641
1.7626,-0.26421
1.7607,-0.26433
1.7589,-0.26444
1.757,-0.26455
1.7552,-0.26466
1.7533,-0.26477
1.7515,-0.26489
1.7496,-0.265
1.7478,-0.26511
1.7459,-0.26522
1.7441,-0.26533
1.7422,-0.26544
1.7404,-0.26555
1.7385,-0.26566
1.7367,-0.26577
1.7348,-0.26589
1.733,-0.266
1.7311,-0.26611
1.7293,-0.26622
1.7274,-0.26633
1.7256,-0.26644
1.7237,-0.26655
1.7219,-0.26666
1.72,-0.26677
1.7182,-0.26688
1.7163,-0.26699
1.7145,-0.2671
1.7127,-0.26721
1.7108,-0.26732
1.709,-0.26743
1.7071,-0.26754
1.7053,-0.26765
1.7034,-0.26776
1.7016,-0.26787
1.6997,-0.26798
1.6979,-0.26809
1.696,-0.2682
1.6942,-0.26831
1.6923,-0.26841
1.6905,-0.26852
1.6886,-0.26863
1.6868,-0.26874
1.6849,-0.26885
1.6831,-0.26896
1.6812,-0.26907
1.6794,-0.26918
1.6775,-0.26928
1.6757,-0.26939
1.6738,-0.2695
1.672,-0.26961
1.6701,-0.26972
1.6683,-0.26983
1.6664,-0.26993
1.6646,-0.27004
1.6627,-0.27015
1.6609,-0.27026
1.659,-0.27037
1.6572,-0.27047
1.6553,-0.27058
1.6535,-0.27069
1.6516,-0.2708
1.6498,-0.2709
1.6479,-0.27101
1.6461,-0.27112
1.6442,-0.27122
1.6424,-0.27133
1.6405,-0.27144
1.6387,-0.27155
1.6368,-0.27165
1.635,-0.27176
1.6331,-0.27187
1.6313,-0.27197
1.6294,-0.27208
1.6276,-0.27218
1.6257,-0.27229
1.6239,-0.2724
1.622,-0.2725
1.6202,-0.27261
1.6183,-0.27272
1.6165,-0.27282
1.6146,-0.27293
1.6128,-0.27303
1.6109,-0.27314
1.6091,-0.27325
1.6072,-0.27335
1.6054,-0.27346
1.6035,-0.27356
1.6017,-0.27367
1.5998,-0.27377
1.598,-0.27388
1.5961,-0.27398
1.5943,-0.27409
1.5924,-0.27419
1.5906,-0.2743
1.5887,-0.2744
1.5869,-0.27451
1.585,-0.27461
1.5832,-0.27472
1.5813,-0.27482
1.5795,-0.27493
1.5776,-0.27503
1.5758,-0.27513
1.5739,-0.27524
1.5721,-0.27534
1.5702,-0.27545
1.5684,-0.27555
1.5665,-0.27565
1.5647,-0.27576
1.5628,-0.27586
1.561,-0.27597
1.5591,-0.27607
1.5573,-0.27617
1.5554,-0.27628
1.5536,-0.27638
1.5517,-0.27648
1.5499,-0.27659
1.548,-0.27669
1.5462,-0.27679
1.5443,-0.2769
1.5425,-0.277
1.5406,-0.2771
1.5388,-0.2772
1.5369,-0.27731
1.5351,-0.27741
1.5332,-0.27751
1.5314,-0.27761
1.5295,-0.27772
1.5277,-0.27782
1.5258,-0.27792
1.524,-0.27802
1.5221,-0.27813
1.5203,-0.27823
1.5184,-0.27833
1.5166,-0.27843
1.5147,-0.27853
1.5129,-0.27863
1.5111,-0.27874
1.5092,-0.27884
1.5074,-0.27894
1.5055,-0.27904
1.5037,-0.27914
1.5018,-0.27924
1.5,-0.27934
1.4981,-0.27944
1.4963,-0.27955
1.4944,-0.27965
1.4926,-0.27975
1.4907,-0.27985
1.4889,-0.27995
1.487,-0.28005
1.4852,-0.28015
1.4833,-0.28025
1.4815,-0.28035
1.4796,-0.28045
1.4778,-0.28055
1.4759,-0.28065
1.4741,-0.28075
1.4722,-0.28085
1.4704,-0.28095
1.4685,-0.28105
1.4667,-0.28115
1.4648,-0.28125
1.463,-0.28135
1.4611,-0.28145
1.4593,-0.28155
1.4574,-0.28165
1.4556,-0.28175
1.4537,-0.28185
1.4519,-0.28195
1.45,-0.28205
1.4482,-0.28214
1.4463,-0.28224
1.4445,-0.28234
1.4426,-0.28244
1.4408,-0.28254
1.4389,-0.28264
1.4371,-0.28274
1.4352,-0.28284
1.4334,-0.28293
1.4315,-0.28303
1.4297,-0.28313
1.4278,-0.28323
1.426,-0.28333
1.4241,-0.28343
1.4223,-0.28352
1.4204,-0.28362
1.4186,-0.28372
1.4167,-0.28382
1.4149,-0.28391
1.413,-0.28401
1.4112,-0.28411
1.4093,-0.28421
1.4075,-0.2843
1.4056,-0.2844
1.4038,-0.2845
1.4019,-0.2846
1.4001,-0.28469
1.3982,-0.28479
1.3964,-0.28489
1.3945,-0.28498
1.3927,-0.28508
1.3908,-0.28518
1.389,-0.28527
1.3871,-0.28537
1.3853,-0.28547
1.3834,-0.28556
1.3816,-0.28566
1.3797,-0.28575
1.3779,-0.28585
1.376,-0.28595
1.3742,-0.28604
1.3723,-0.28614
1.3705,-0.28623
1.3686,-0.28633
1.3668,-0.28643
1.3649,-0.28652
1.3631,-0.28662
1.3612,-0.28671
1.3594,-0.28681
1.3575,-0.2869
1.3557,-0.287
1.3538,-0.28709
1.352,-0.28719
1.3501,-0.28728
1.3483,-0.28738
1.3464,-0.28747
1.3446,-0.28757
1.3427,-0.28766
1.3409,-0.28776
1.339,-0.28785
1.3372,-0.28795
1.3353,-0.28804
1.3335,-0.28813
1.3316,-0.28823
1.3298,-0.28832
1.3279,-0.28842
1.3261,-0.28851
1.3242,-0.28861
1.3224,-0.2887
1.3205,-0.28879
1.3187,-0.28889
1.3168,-0.28898
1.315,-0.28907
1.3132,-0.28917
1.3113,-0.28926
1.3095,-0.28935
1.3076,-0.28945
1.3058,-0.28954
1.3039,-0.28963
1.3021,-0.28973
1.3002,-0.28982
1.2984,-0.28991
1.2965,-0.29
1.2947,-0.2901
1.2928,-0.29019
1.291,-0.29028
1.2891,-0.29038
1.2873,-0.29047
1.2854,-0.29056
1.2836,-0.29065
1.2817,-0.29074
1.2799,-0.29084
1.278,-0.29093
1.2762,-0.29102
1.2743,-0.29111
1.2725,-0.2912
1.2706,-0.2913
1.2688,-0.29139
1.2669,-0.29148
1.2651,-0.29157
1.2632,-0.29166
1.2614,-0.29175
1.2595,-0.29184
1.2577,-0.29194
1.2558,-0.29203
1.254,-0.29212
1.2521,-0.29221
1.2503,-0.2923
1.2484,-0.29239
1.2466,-0.29248
1.2447,-0.29257
1.2429,-0.29266
1.241,-0.29275
1.2392,-0.29284
1.2373,-0.29293
1.2355,-0.29302
1.2336,-0.29311
1.2318,-0.29321
1.2299,-0.2933
1.2281,-0.29339
1.2262,-0.29348
1.2244,-0.29356
1.2225,-0.29365
1.2207,-0.29374
1.2188,-0.29383
1.217,-0.29392
1.2151,-0.29401
1.2133,-0.2941
1.2114,-0.29419
1.2096,-0.29428
1.2077,-0.29437
1.2059,-0.29446
1.204,-0.29455
1.2022,-0.29464
1.2003,-0.29473
1.1985,-0.29482
1.1966,-0.2949
1.1948,-0.29499
1.1929,-0.29508
1.1911,-0.29517
1.1892,-0.29526
1.1874,-0.29535
1.1855,-0.29543
1.1837,-0.29552
1.1818,-0.29561
1.18,-0.2957
1.1781,-0.29579
1.1763,-0.29588
1.1744,-0.29596
1.1726,-0.29605
1.1707,-0.29614
1.1689,-0.29623
1.167,-0.29631
1.1652,-0.2964
1.1633,-0.29649
1.1615,-0.29658
1.1596,-0.29666
1.1578,-0.29675
1.1559,-0.29684
1.1541,-0.29692
1.1522,-0.29701
1.1504,-0.2971
1.1485,-0.29719
1.1467,-0.29727
1.1448,-0.29736
1.143,-0.29745
1.1411,-0.29753
1.1393,-0.29762
1.1374,-0.2977
1.1356,-0.29779
1.1337,-0.29788
1.1319,-0.29796
1.13,-0.29805
1.1282,-0.29814
1.1263,-0.29822
1.1245,-0.29831
1.1226,-0.29839
1.1208,-0.29848
1.1189,-0.29856
1.1171,-0.29865
1.1152,-0.29874
1.1134,-0.29882
1.1116,-0.29891
1.1097,-0.29899
1.1079,-0.29908
1.106,-0.29916
1.1042,-0.29925
1.1023,-0.29933
1.1005,-0.29942
1.0986,-0.2995
1.0968,-0.29959
1.0949,-0.29967
1.0931,-0.29976
1.0912,-0.29984
1.0894,-0.29993
1.0875,-0.30001
1.0857,-0.30009
1.0838,-0.30018
1.082,-0.30026
1.0801,-0.30035
1.0783,-0.30043
1.0764,-0.30051
1.0746,-0.3006
1.0727,-0.30068
1.0709,-0.30077
1.069,-0.30085
1.0672,-0.30093
1.0653,-0.30102
1.0635,-0.3011
1.0616,-0.30118
1.0598,-0.30127
1.0579,-0.30135
1.0561,-0.30143
1.0542,-0.30152
1.0524,-0.3016
1.0505,-0.30168
1.0487,-0.30177
1.0468,-0.30185
1.045,-0.30193
1.0431,-0.30201
1.0413,-0.3021
1.0394,-0.30218
1.0376,-0.30226
1.0357,-0.30234
1.0339,-0.30243
1.032,-0.30251
1.0302,-0.30259
1.0283,-0.30267
1.0265,-0.30275
1.0246,-0.30284
1.0228,-0.30292
1.0209,-0.303
1.0191,-0.30308
1.0172,-0.30316
1.0154,-0.30325
1.0135,-0.30333
1.0117,-0.30341
1.0098,-0.30349
1.008,-0.30357
1.0061,-0.30365
1.0043,-0.30373
1.0024,-0.30381
1.0006,-0.3039
0.99873,-0.30398
0.99688,-0.30406
0.99503,-0.30414
0.99318,-0.30422
0.99133,-0.3043
0.98948,-0.30438
0.98763,-0.30446
0.98578,-0.30454
0.98393,-0.30462
0.98208,-0.3047
0.98023,-0.30478
0.97838,-0.30486
0.97653,-0.30494
0.97468,-0.30502
0.97283,-0.3051
0.97099,-0.30518
0.96914,-0.30526
0.96729,-0.30534
0.96544,-0.30542
0.96359,-0.3055
0.96174,-0.30558
0.95989,-0.30566
0.95804,-0.30574
0.95619,-0.30582
0.95434,-0.3059
0.95249,-0.30598
0.95064,-0.30606
0.94879,-0.30614
0.94694,-0.30621
0.94509,-0.30629
0.94324,-0.30637
0.94139,-0.30645
0.93954,-0.30653
0.93769,-0.30661
0.93584,-0.30669
0.93399,-0.30676
0.93214,-0.30684
0.9303,-0.30692
0.92845,-0.307
0.9266,-0.30708
0.92475,-0.30716
0.9229,-0.30723
0.92105,-0.30731
0.9192,-0.30739
0.91735,-0.30747
0.9155,-0.30755
0.91365,-0.30762
0.9118,-0.3077
0.90995,-0.30778
0.9081,-0.30786
0.90625,-0.30793
0.9044,-0.30801
0.90255,-0.30809
0.9007,-0.30817
0.89885,-0.30824
0.897,-0.30832
0.89515,-0.3084
0.8933,-0.30847
0.89145,-0.30855
0.88961,-0.30863
0.88776,-0.3087
0.88591,-0.30878
0.88406,-0.30886
0.88221,-0.30893
0.88036,-0.30901
0.87851,-0.30909
0.87666,-0.30916
0.87481,-0.30924
0.87296,-0.30932
0.87111,-0.30939
0.86926,-0.30947
0.86741,-0.30954
0.86556,-0.30962
0.86371,-0.30969
0.86186,-0.30977
0.86001,-0.30985
0.85816,-0.30992
0.85631,-0.31
0.85446,-0.31007
0.85261,-0.31015
0.85077,-0.31022
0.84892,-0.3103
0.84707,-0.31037
0.84522,-0.31045
0.84337,-0.31052
0.84152,-0.3106
0.83967,-0.31067
0.83782,-0.31075
0.83597,-0.31082
0.83412,-0.3109
0.83227,-0.31097
0.83042,-0.31105
0.82857,-0.31112
0.82672,-0.3112
0.82487,-0.31127
0.82302,-0.31135
0.82117,-0.31142
0.81932,-0.31149
0.81747,-0.31157
0.81562,-0.31164
0.81377,-0.31172
0.81192,-0.31179
0.81008,-0.31186
0.80823,-0.31194
0.80638,-0.31201
0.80453,-0.31208
0.80268,-0.31216
0.80083,-0.31223
0.79898,-0.31231
0.79713,-0.31238
0.79528,-0.31245
0.79343,-0.31253
