theta,y3.05,-0.10184
3.0365,-0.10479
3.0229,-0.10709
3.0094,-0.109
2.9958,-0.11067
2.9823,-0.11215
2.9687,-0.1135
2.9552,-0.11475
2.9416,-0.11592
2.9281,-0.11703
2.9145,-0.11809
2.901,-0.11911
2.8875,-0.12009
2.8739,-0.12104
2.8604,-0.12196
2.8468,-0.12286
2.8333,-0.12374
2.8197,-0.1246
2.8062,-0.12545
2.7926,-0.12628
2.7791,-0.1271
2.7656,-0.12791
2.752,-0.12871
2.7385,-0.1295
2.7249,-0.13028
2.7114,-0.13106
2.6978,-0.13182
2.6843,-0.13258
2.6707,-0.13334
2.6572,-0.13408
2.6436,-0.13483
2.6301,-0.13556
2.6166,-0.1363
2.603,-0.13702
2.5895,-0.13775
2.5759,-0.13846
2.5624,-0.13918
2.5488,-0.13989
2.5353,-0.1406
2.5217,-0.1413
2.5082,-0.142
2.4946,-0.14269
2.4811,-0.14339
2.4676,-0.14408
2.454,-0.14476
2.4405,-0.14545
2.4269,-0.14613
2.4134,-0.1468
2.3998,-0.14748
2.3863,-0.14815
2.3727,-0.14882
2.3592,-0.14948
2.3457,-0.15014
2.3321,-0.1508
2.3186,-0.15146
2.305,-0.15212
2.2915,-0.15277
2.2779,-0.15342
2.2644,-0.15406
2.2508,-0.15471
2.2373,-0.15535
2.2237,-0.15599
2.2102,-0.15662
2.1967,-0.15725
2.1831,-0.15788
2.1696,-0.15851
2.156,-0.15914
2.1425,-0.15976
2.1289,-0.16038
2.1154,-0.161
2.1018,-0.16161
2.0883,-0.16222
2.0747,-0.16283
2.0612,-0.16344
2.0477,-0.16404
2.0341,-0.16465
2.0206,-0.16524
2.007,-0.16584
1.9935,-0.16643
1.9799,-0.16703
1.9664,-0.16761
1.9528,-0.1682
1.9393,-0.16878
1.9258,-0.16936
1.9122,-0.16994
1.8987,-0.17052
1.8851,-0.17109
1.8716,-0.17166
1.858,-0.17222
1.8445,-0.17279
1.8309,-0.17335
1.8174,-0.17391
1.8038,-0.17447
1.7903,-0.17502
1.7768,-0.17557
1.7632,-0.17612
1.7497,-0.17666
1.7361,-0.17721
1.7226,-0.17775
1.709,-0.17828
1.6955,-0.17882
1.6819,-0.17935
1.6684,-0.17988
1.6548,-0.18041
1.6413,-0.18093
1.6278,-0.18145
1.6142,-0.18197
1.6007,-0.18248
1.5871,-0.183
1.5736,-0.18351
1.56,-0.18401
1.5465,-0.18452
1.5329,-0.18502
1.5194,-0.18552
1.5059,-0.18601
1.4923,-0.18651
1.4788,-0.187
1.4652,-0.18749
1.4517,-0.18797
1.4381,-0.18845
1.4246,-0.18893
1.411,-0.18941
1.3975,-0.18989
1.3839,-0.19036
1.3704,-0.19083
1.3569,-0.19129
1.3433,-0.19176
1.3298,-0.19222
1.3162,-0.19267
1.3027,-0.19313
1.2891,-0.19358
1.2756,-0.19403
1.262,-0.19448
1.2485,-0.19492
1.2349,-0.19537
1.2214,-0.19581
1.2079,-0.19624
1.1943,-0.19668
1.1808,-0.19711
1.1672,-0.19754
1.1537,-0.19796
1.1401,-0.19839
1.1266,-0.19881
1.113,-0.19923
1.0995,-0.19964
1.086,-0.20005
1.0724,-0.20046
1.0589,-0.20087
1.0453,-0.20128
1.0318,-0.20168
1.0182,-0.20208
1.0047,-0.20248
0.99114,-0.20287
0.97759,-0.20326
0.96405,-0.20365
0.9505,-0.20404
0.93696,-0.20443
0.92341,-0.20481
0.90987,-0.20519
0.89632,-0.20557
0.88278,-0.20594
0.86923,-0.20631
0.85569,-0.20668
0.84214,-0.20705
0.8286,-0.20741
0.81505,-0.20778
0.80151,-0.20814
0.78796,-0.20849
0.77441,-0.20885
0.76087,-0.2092
0.74732,-0.20955
0.73378,-0.2099
0.72023,-0.21025
0.70669,-0.21059
0.69314,-0.21093
0.6796,-0.21127
0.66605,-0.2116
0.65251,-0.21194
0.63896,-0.21227
0.62542,-0.2126
0.61187,-0.21292
0.59833,-0.21325
0.58478,-0.21357
0.57124,-0.21389
0.55769,-0.21421
0.54415,-0.21452
0.5306,-0.21484
0.51706,-0.21515
0.50351,-0.21546
0.48997,-0.21576
0.47642,-0.21607
0.46288,-0.21637
0.44933,-0.21667
0.43579,-0.21696
0.42224,-0.21726
0.4087,-0.21755
0.39515,-0.21784
0.38161,-0.21813
0.36806,-0.21842
0.35452,-0.2187
0.34097,-0.21898
0.32742,-0.21926
0.31388,-0.21954
0.30033,-0.21981
0.28679,-0.22009
0.27324,-0.22036
0.2597,-0.22063
0.24615,-0.22089
0.23261,-0.22116
0.21906,-0.22142
0.20552,-0.22168
0.19197,-0.22194
0.17843,-0.22219
0.16488,-0.22245
0.15134,-0.2227
0.13779,-0.22295
0.12425,-0.22319
0.1107,-0.22344
0.097157,-0.22368
0.083612,-0.22392
0.070067,-0.22416
0.056522,-0.2244
0.042977,-0.22463
0.029431,-0.22487
0.015886,-0.2251
0.0023411,-0.22533
-0.011204,-0.22555
-0.024749,-0.22578
-0.038294,-0.226
-0.051839,-0.22622
-0.065385,-0.22644
-0.07893,-0.22665
-0.092475,-0.22687
-0.10602,-0.22708
-0.11957,-0.22729
-0.13311,-0.2275
-0.14666,-0.2277
-0.1602,-0.22791
-0.17375,-0.22811
-0.18729,-0.22831
-0.20084,-0.2285
-0.21438,-0.2287
-0.22793,-0.22889
-0.24147,-0.22908
-0.25502,-0.22927
-0.26856,-0.22946
-0.28211,-0.22964
-0.29565,-0.22983
-0.3092,-0.23001
-0.32274,-0.23019
-0.33629,-0.23036
-0.34983,-0.23054
-0.36338,-0.23071
-0.37692,-0.23088
-0.39047,-0.23105
-0.40401,-0.23122
-0.41756,-0.23138
-0.4311,-0.23154
-0.44465,-0.23171
-0.45819,-0.23186
-0.47174,-0.23202
-0.48528,-0.23217
-0.49883,-0.23233
-0.51237,-0.23248
-0.52592,-0.23262
-0.53946,-0.23277
-0.55301,-0.23292
-0.56656,-0.23306
-0.5801,-0.2332
-0.59365,-0.23334
-0.60719,-0.23347
-0.62074,-0.23361
-0.63428,-0.23374
-0.64783,-0.23387
-0.66137,-0.234
-0.67492,-0.23412
-0.68846,-0.23425
-0.70201,-0.23437
-0.71555,-0.23449
-0.7291,-0.23461
-0.74264,-0.23472
-0.75619,-0.23484
-0.76973,-0.23495
-0.78328,-0.23506
-0.79682,-0.23517
-0.81037,-0.23527
-0.82391,-0.23538
-0.83746,-0.23548
-0.851,-0.23558
-0.86455,-0.23568
-0.87809,-0.23577
-0.89164,-0.23587
-0.90518,-0.23596
-0.91873,-0.23605
-0.93227,-0.23614
-0.94582,-0.23623
-0.95936,-0.23631
-0.97291,-0.2364
-0.98645,-0.23648
-1,-0.23656
